mN/GeV	c tau (meters) for Utau = 1
0.1	383.6166379078997
0.10131254692562633	359.4021057119752
0.10264232164557235	336.7160487926027
0.1039895502827228	315.46198525018633
0.10535446192793131	295.54952350784407
0.10673728867897654	276.8939778573233
0.10813826568002934	259.41600827448985
0.10955763116163819	243.04128297224088
0.1109956264812393	227.70016225544333
0.11245249616419847	213.32740233310258
0.11392848794539173	199.86187782787889
0.11542385281133152	187.24632180260616
0.1169388450428461	175.42708219798024
0.11847372225831888	164.3538936454076
0.12002874545749555	153.97966368440026
0.12160417906586572	144.26027247518843
0.12320029097962787	135.15438515461713
0.12481735261124366	126.62327603719336
0.1264556389355907	118.63066391352044
0.12811542853672092	111.1425577455728
0.12979700365523264	104.12711210248783
0.13150065023626448	97.55449172198266
0.1332266579781192	91.39674462132545
0.1349753203815257	85.62768321815435
0.1367469347995477	77.83856328037788
0.1385418024881474	67.22793494560968
0.14036022865741288	56.18775438513872
0.14220252252345783	46.18338434172753
0.14406899736100254	37.764186385796826
0.14595997055664506	30.94007515273555
0.1478757636628314	25.49905635495394
0.1498167024525343	21.179741837727615
0.1517831169746498	17.742762240425478
0.15377534161012038	14.991461929403657
0.15579371512879533	12.771830291184388
0.1578385807470374	10.965764820079036
0.15991028618608485	9.483369735667212
0.1620091837311806	8.256224856593237
0.16413563029147651	7.232046788504367
0.16628998746072468	6.370633044093389
0.16847262157876478	5.640840336042513
0.17068390379381893	5.018350215321848
0.1729242101256037	4.484018413184172
0.17519392152927094	4.022651885901225
0.17749342396018752	3.622098119792966
0.17982310843956587	3.272562643242241
0.1821833711209551	2.9660939440698586
0.1845746133576056	2.6961918527816513
0.1869972417707175	2.457507563751329
0.18945166831858506	2.2456121392405937
0.19193831036664843	2.0568165568739656
0.194457590758465	1.888030830378755
0.19700993788761226	1.736652962044914
0.19959578577053444	1.6004808309973702
0.20221557412034527	1.4776418360700692
0.20486974842159944	1.3665363736894973
0.2075587600060456	1.2657921655920485
0.21028306612937306	1.1742271478795014
0.2130431300489669	1.0908191525512878
0.21583942110268264	1.014680941818145
0.21867241478865562	0.945039645286788
0.2215425928461569	0.8812198408692893
0.22445044333751205	0.8226294174362934
0.22739646073109315	0.7687477324773635
0.23038114598540224	0.7191156620537452
0.23340500663425628	0.6733272106920138
0.23646855687309218	0.6310224112823178
0.23957231764640283	0.5918812956094232
0.24271681673632242	0.5556187567189272
0.2459025888523731	0.521980156877885
0.24913017572239052	0.49073756107686606
0.25240012618464214	0.46168649715490206
0.2557129962811556	0.4346431607462179
0.2590693493522709	0.4094419971627791
0.26246975613243423	0.3859336036800671
0.26591479484724945	0.36398290499033387
0.2694050513118026	0.34346756222728153
0.2729411190302776	0.32427658226573264
0.27652359929687964	0.30630909921191163
0.2801531012980821	0.28947330432622537
0.2838302422162168	0.27368550422282734
0.2875556473344235	0.25886929019912075
0.2913299501429763	0.24495480406894585
0.29515379244700674	0.2318780879908463
0.2990278244756394	0.21958050756696357
0.3029527049925617	0.20800823899529206
0.30692910140804336	0.1971118123347013
0.31095768989242706	0.1868457040262213
0.3150391554911087	0.17716797273700785
0.3191741922410265	0.1680399333809778
0.32336350328867863	0.15942586484376292
0.3276078010096919	0.15129274751717256
0.3319078071299565	0.14361002724459782
0.3362642528483545	0.13634940270605847
0.34067787896109597	0.12948463364031945
0.3451494359876887	0.12299136762026969
0.3496796842985617	0.1168469833739523
0.3542693942443623	0.11103044888337224
0.3589193462869517	0.10552219270168772
0.3636303311321192	0.10030398711104879
0.36840314986403866	0.09535884190188515
0.3732386140814896	0.09067090769307248
0.3781375460358665	0.08622538783380686
0.3831007787709991	0.08200845803453322
0.3881291562648084	0.07800719296785262
0.39322353357282136	0.07420949916270243
0.3983847769735707	0.0706040535876964
0.4036137641159006	0.06718024738360319
0.40891138416820844	0.06392813426158897
0.4142785379696444	0.06083838313401387
0.41971613818329456	0.057902234589036594
0.4252251094513769	0.05511146085975549
0.4308063885524723	0.05245832897371228
0.4364609245608194	0.04993556679981656
0.4421896790077028	0.047536331737590504
0.4479936260449553	0.045254181818478324
0.45387375261061014	0.043083049011157164
0.45983105859672563	0.041017214542645626
0.4658665570194118	0.03905128606478605
0.4719812741910913	0.03718017651161831
0.47817624989501856	0.03539908450747842
0.4844525375620908	0.03370347619850904
0.49081120444998066	0.03208906839184135
0.49725333182461845	0.03055181289712329
0.5037800151440569	0.029087881974459023
0.5103923642447501	0.02769365480129875
0.517091503530276	0.026365704878471567
0.5238785721625376	0.025100788302473902
0.5307547242554721	0.023895832837387363
0.5377211290713038	0.02274792772547509
0.5447789712193724	0.02165431418064605
0.5519294508575707	0.020611060736014077
0.5591737838964281	0.019609997814418523
0.5665132022058691	0.01864978415182543
0.5739489538246894	0.01772985765903713
0.5814823031727799	0.016849491036723795
0.5891145312661352	0.016007820430163182
0.5968469359346869	0.015203871325816536
0.6046808320429926	0.014436581732533267
0.6126175517138244	0.01370482274404748
0.6206584445546917	0.01300741661817511
0.6288048778873342	0.012343152534177103
0.6370582369802328	0.011710800205429457
0.6454199252841663	0.011109121531932916
0.6538913646708632	0.010536880478144665
0.6624739956747866	0.009992851357719214
0.67116927773809	0.00947582569933586
0.6799786894587896	0.00898461785796831
0.6889037288421951	0.008518069524599532
0.6979459135556384	0.00807505327520413
0.7071067811865475	0.007654475287341756
0.7163878895039065	0.007255277340336211
0.7257908167231498	0.0068764382030414165
0.7353171617745274	0.0065169745018224335
0.7449685445750016	0.006175941150733423
0.7547466063037043	0.005852431416033189
0.7646530096810125	0.005545576678170704
0.7746894392512895	0.0052545459462035845
0.784857601669334	0.0049746004452869835
0.7951592259905896	0.004702291267296837
0.805596063965163	0.004439210909675733
0.8161698903357044	0.004186499184715222
0.8268825031391936	0.00394490754110402
0.8377357240126891	0.003714865850949621
0.8487313985030909	0.003496544141803051
0.8598713963809687	0.00328990757773318
0.8711576119585073	0.00309476401123221
0.8825919644116281	0.0029108041233884803
0.8941763981063381	0.0027376346059886764
0.9059128829293591	0.0025748050805492516
0.9178034146231009	0.0024218295530827167
0.9298500151250296	0.002278203216209074
0.9420547329114896	0.002143415367321323
0.9544196433460364	0.0020169591382179965
0.9669468490323483	0.0018982027538821617
0.9796384801717635	0.0017863697964878539
0.9924966949255101	0.0016689626184710296
1.0055236797816978	0.0015620673760037794
1.0187216499271174	0.0014620509991385311
1.0320928496239252	0.001368468189848536
1.045639552591273	0.0012809026858755475
1.0593640623919427	0.0011989653512496589
1.0732687128240586	0.0011222923935749096
1.0873558683179398	0.0010505436995839454
1.101627924338164	0.0009834012810390103
1.116087307790906	0.0009205678235921956
1.1307364774366209	0.0008617653317163087
1.1455779243081503	0.0008067338632831586
1.1606141721343117	0.0007552303477992922
1.1758477777690437	0.0007070274827132048
1.1912813316261963	0.0006619127025847959
1.2069174581200166	0.0006196872162587227
1.222758816111418	0.0005801651075102896
1.238808099360113	0.0005431724949381099
1.2550680369826743	0.0005085467471609764
1.2715413939166094	0.0004761357496424514
1.2882309713905276	0.0004457972197128878
1.3051396074004797	0.0004173980665892655
1.3222701771925465	0.00039081379340782577
1.3396255937517607	0.0003659279384841158
1.3572088082974532	0.0003426315532026905
1.3750228107850915	0.000320822714111196
1.3930706304147114	0.000300406066957094
1.4113553361460225	0.0002812924005556876
1.4298800372202707	0.0002633982485192964
1.4486478836889503	0.00024664551700892247
1.46766206694946	0.00023096113679260913
1.4869258202877884	0.00021627673800839366
1.5064424194283201	0.00020252834613724
1.526215183090857	0.00018965609779004417
1.5462474735549578	0.00017760397500603205
1.5665426972316794	0.00016631955684638883
1.587104305242817	0.00015575378714726955
1.6079357940077643	0.00014586075737231752
1.6290407058380587	0.00013659750357445193
1.650422629539737	0.00012792381654259176
1.6720852010236016	0.00011980206427004038
1.694032103923491	0.00011219702593841705
1.7162670702226612	0.0001050757366640751
1.7387938808884054	0.00009840734230385012
1.7616163665149842	0.00009216296366326811
1.7847384079750073	0.00008631556949308513
1.808163937079355	0.00008083985715134172
1.8318969372457745	0.00007571213617021419
1.8559414441762372	0.00007091021643793613
1.8803015465431967	0.0000664133083040743
1.904981386684853	0.00006220192926670088
1.9299851613095393	0.00005825566657130257
1.9553171222093524	0.00005455978741483589
1.9809815769831558	0.000051096992701328725
2.0069828897690725	0.00004785202772131652
2.0333254819865823	0.00004481062837621375
2.0600138330883735	0.00004195947619512602
2.0870524813220515	0.0000392861519072648
2.1144460245018535	0.0000367790879535398
2.14219912079048	0.000034427520381331654
2.170316489491209	0.00003222144059935875
2.1988029118503873	0.00003015154746583978
2.2276632318704612	0.000028209200152704043
2.2569023571336846	0.00002638637218100882
2.2865252596366323	0.000024670050206746532
2.316536976635662	0.000023063510600295327
2.3469426115034895	0.000021555625155044007
2.3777473345969935	0.000020140411273930436
2.4089563841364074	0.000018812298608827635
2.440575067096068	0.00001756609492968346
2.4726087601068407	0.000016396954414002535
2.505062910370391	0.00001530034835676531
2.537943036585462	0.00001427203826927784
2.5712547298863115	0.00001330805130776427
2.6050036547934563	0.000012404657949094016
2.6391955501769018	0.000011558351811477076
2.673836230232015	0.000010765831502156496
2.708931585468209	0.00001002398436175238
2.7444875837105913	9.329871965938222e-6
2.78051027111478	8.680717239462741e-6
2.817005773195022	8.073893034766598e-6
2.85398029586581	7.506912027507949e-6
2.891440126497177	6.97741778406287e-6
2.929391634983841	6.483176860890851e-6
2.967841274828377	6.02207180258692e-6
3.006795584238605	5.592094913825403e-6
3.046261187239396	5.191342690138037e-6
3.086244794799057	4.818010802916023e-6
3.126753205970494	4.470389545116341e-6
3.167793309047381	4.1468596553132784e-6
3.20937208273548	3.845888448814989e-6
3.251496597339333	3.5660261952844693e-6
3.294174015964554	3.30590269237264e-6
3.3374115957358788	3.0642239942665907e-6
3.3812166890312074	2.8397692624955033e-6
3.4255967447318496	2.6313877139563465e-6
3.470559309489182	2.437995647607867e-6
3.5161120290079215	2.258573536978468e-6
3.5622626493462413	2.0921631775852974e-6
3.609019018232971	1.937863167541118e-6
3.6563890864020583	1.7938328581209845e-6
3.704380908944564	1.6611337954486564e-6
3.7530026466784037	1.5001657988201929e-6
3.802262567536056	1.3843288708405234e-6
3.8521690479704924	1.277101722869698e-6
3.902730574379557	1.1778965242730678e-6
3.953955744549053	1.0861606253092264e-6
4.005853269114758	1.0013743378783878e-6
4.058431973043625	9.23049492203014e-7
4.111700797134444	8.507275068795678e-7
4.165668799538188	7.839777766950557e-7
4.2203451572983	7.223966703578205e-7
4.2757391679112375	6.656057601399187e-7
4.331860250907458	6.132510142928702e-7
4.388717949453171	5.650013987555622e-7
4.446321931973128	5.205478035375034e-7
4.504681993794694	4.796019940637171e-7
4.563808058813488	4.4189545985108166e-7
4.62371018118093	4.071784349804991e-7
4.68439854701389	3.7521885248180834e-7
4.7458834761268065	3.4580130977861457e-7
4.808175423786515	3.187261087966839e-7
4.871284982490146	2.938083557270188e-7
4.935222883766319	2.708769206615358e-7
5.	2.4977367872272e-7